# this is FONLL_1.3.2 3 optimal choices 
# first, total cross section (in fm2)
3
0.0736079d0 0.0838993d0 0.0840331d0
# cross section is ds/dpt (pb/GeV)
# pt     fit 1                  fit 2               fit 3 
300 0.1d0
0.05  9.914191004747014e6  1.3514130086817391e7  1.4457754163531292e7
0.15  2.886872287876574e7  3.852865046377612e7  4.095551168437758e7
0.25  4.588950258436005e7  6.0435623818307646e7  6.316462297678058e7
0.35  6.078157148428351e7  7.881084531877904e7  8.093318376740994e7
0.45  7.335195021679464e7  9.338672063825905e7  9.415945351970948e7
0.55  8.31948873033602e7  1.0399800719698372e8  1.0299816263302505e8
0.65  9.08804140894318e7  1.107963828853334e8  1.0848084710299538e8
0.75  9.615221439710672e7  1.1411109970925577e8  1.111091442973626e8
0.85  9.882819487992126e7  1.1438609295766897e8  1.1125045059813504e8
0.95  9.895882706325391e7  1.1213065505924858e8  1.0927922770235962e8
1.05  9.687168104318888e7  1.0787134259279478e8  1.0555580667700607e8
1.15  9.293391242591114e7  1.0207058815093064e8  1.0044051858904405e8
1.25  8.759877530207494e7  9.518835801911864e7  9.42936945054433e7
1.35  8.131556521132441e7  8.768338532924086e7  8.743327360294177e7
1.45  7.450388856072812e7  7.994164715194005e7  8.017719505827743e7
1.55  6.749329472187527e7  7.221100735686219e7  7.280100615795653e7
1.65  6.064005328567313e7  6.474302927439426e7  6.559933053908958e7
1.75  5.409557882825727e7  5.767459295195266e7  5.870570265590651e7
1.85  4.797664860442509e7  5.110681698312436e7  5.223952633256007e7
1.95  4.236837146089331e7  4.510999112198804e7  4.628063962898665e7
2.05  3.7286581601702265e7  3.969521375076666e7  4.0850238490302116e7
2.15  3.2737216853367064e7  3.486001856229956e7  3.596174701507986e7
2.25  2.8691577721064627e7  3.0563711488435898e7  3.1591143132188566e7
2.35  2.5117006158961788e7  2.6771764228926502e7  2.7712991707489196e7
2.45  2.1976885570215307e7  2.3443482715620533e7  2.4289846571277052e7
2.55  1.9223713342704207e7  2.05270744981442e7  2.127507664429723e7
2.65  1.6819883241832726e7  1.7980612354766343e7  1.8634061882860493e7
2.75  1.4719871930984937e7  1.5758469603014821e7  1.632441039673511e7
2.85  1.2890031726575151e7  1.3821185328319127e7  1.4307262953208653e7
2.95  1.1298694220522726e7  1.2130655085047117e7  1.2545879914080298e7
3.05  9.913201366994495e6  1.0656543295122715e7  1.100917389318011e7
3.15  8.707129837998169e6  9.371227318346571e6  9.6688836303536e6
3.25  7.656035581046502e6  8.250414029186216e6  8.500987054469457e6
3.35  6.7395320584375765e6  7.273386447492137e6  7.483581688907953e6
3.45  5.939706826850779e6  6.421893900275474e6  6.597096611012106e6
3.55  5.241220501122047e6  5.678425606695567e6  5.823939186335749e6
3.65  4.630614007817104e6  5.02571741662782e6  5.145527636327308e6
3.75  4.096704440332475e6  4.45279426320731e6  4.550557456924986e6
3.85  3.6296943849182096e6  3.950284179223545e6  4.029349166525874e6
3.95  3.2210729569026334e6  3.5100483510463564e6  3.5732830807828526e6
4.05  2.8634178731418457e6  3.1245645418357425e6  3.174587353153438e6
4.15  2.5479213576384173e6  2.7847074150972744e6  2.823299889433174e6
4.25  2.268744547652479e6  2.4844345182873434e6  2.512849946636143e6
4.35  2.0219288921739494e6  2.218936552442669e6  2.238574416836854e6
4.45  1.8038127315185051e6  1.9841441107481685e6  1.9963047641625209e6
4.55  1.611130261102829e6  1.7766043631789226e6  1.7824376779434464e6
4.65  1.4412094589951166e6  1.592987795068045e6  1.5937937664122507e6
4.75  1.2909824481625555e6  1.4303348378227476e6  1.4269816783503958e6
4.85  1.1575792791228371e6  1.2856859228502428e6  1.2790339814416606e6
4.95  1.0390206763709214e6  1.1569570205997757e6  1.147760428024072e6
5.05  933693.5303702003  1.0422367430218379e6  1.0310414235860438e6
5.15  839945.1460739649  939934.3219978055  927322.5988190793
5.25  756479.0980264143  848619.299374498  834978.9312642956
5.35  682127.6136795742  767046.1900357837  752738.6642147406
5.45  615811.987883198  694105.1557593672  679372.4328536945
5.55  556502.9973746645  628723.3529303628  613806.3092952864
5.65  503408.93195195764  570074.5686499508  555135.933214573
5.75  455827.14881078806  517394.2476983277  502584.11995730584
5.85  413153.96892211854  470028.81867791916  455458.46864970005
5.95  374845.09152206295  427411.03094177454  413172.55814355
6.05  340425.49048941163  389010.6284503526  375182.35918088193
6.15  309469.62159058085  354396.00745053834  341028.62628418533
6.25  281611.3188571382  323160.22726082354  310287.4405511429
6.35  256504.2090757016  294933.3418071097  282577.2749696692
6.45  233821.7117879394  269394.7311585114  257558.99441791023
6.55  213316.4175557216  246273.1015273566  234957.05160935989
6.65  194780.5024510189  225321.8221975795  214517.0952026277
6.75  177996.2461682769  206306.5939889177  196013.03511647784
6.85  162785.51391204196  189054.7754001254  179261.17315990615
6.95  148989.96364191087  173381.39339415322  164063.68051183116
7.05  136708.55913313563  159126.13800555855  150279.2508714805
7.15  125683.99457006098  146153.36234050526  137759.51262304312
7.25  115629.27500445611  134339.75104096052  126384.35541086241
7.35  106455.33303859418  123561.98874889154  116026.60356424321
7.45  98073.10127474836  113722.65633145237  106601.47330272205
7.55  90409.3465192322  104744.06511308231  98010.05021575824
7.65  83397.76304262684  96538.66118957808  90167.55052288831
7.75  76978.97257978105  89036.15480686096  83017.4517038033
7.85  71099.53469205875  82169.95567159321  76489.10060811698
7.95  65708.9778540814  75880.87241191909  70513.96367995473
8.05  60763.75800473814  70118.34573104513  65051.7686235964
8.15  56224.28963392814  64833.049485758216  60050.93863926006
8.25  52053.956144808166  59981.823300746844  55469.08183671398
8.35  48256.7160883883  55525.206261440515  51268.0455147496
8.45  44818.714536133244  51429.90322117037  47412.50309817382
8.55  41645.93590155359  47662.61903326754  43872.78026382442
8.65  38718.58742959894  44194.991165384476  40620.61575154692
8.75  36014.89708971385  41003.589699494936  37631.280958706135
8.85  33516.06176460043  38062.518410412034  34881.460345674626
8.95  31206.247250218374  35352.046840850526  32351.371030344246
9.05  29069.619342527327  32851.21137994482  30021.23013060686
9.15  27092.323112992042  30543.981031150644  27874.080890369765
9.25  25261.493270829735  28411.858490763087  25894.379616548005
9.35  23565.254163010177  26443.745376559185  24067.995679064334
9.45  21992.71977425563  24622.377538414345  22382.21151084923
9.55  20533.993727040906  22937.889747685946  20824.309544833177
9.65  19180.16928159332  21379.183622151024  19384.3983399621
9.75  17923.32933589271  19935.160779586633  18052.58645518194
9.85  16756.546425671437  18595.955991350143  16819.68898094248
9.95  15670.913811156814  17355.403489539916  15678.640602205096
10.05  14662.472941338767  16203.638045513322  14621.669472427311
10.15  13724.29635194965  15135.72704494905  13641.710276570502
10.25  12850.446216474345  14144.27156636513  12733.817294107632
10.35  12037.95362165529  13223.10584185992  11890.92521000008
10.45  11280.880740977364  12367.297257112106  11109.501366728537
10.55  10575.269023430485  11572.15982851645  10383.18698075824
10.65  9918.149555757096  10832.390995677524  9709.155926073743
10.75  9305.365859396608  10143.921351780258  9082.462482148012
10.85  8733.454202215205  9502.928120725628  8500.280522965595
10.95  8199.643598505829  8905.958472488719  7958.370859503321
11.05  7701.262026336673  8349.559577044609  7453.907365745742
11.15  7235.538500000684  7830.895181158543  6983.922609376637
11.25  6800.295816442315  7347.005716237734  6546.085036433259
11.35  6393.257808830772  6895.301559763492  6137.992439802478
11.45  6012.643129211515  6473.686350649261  5757.313265521548
11.55  5656.472502079508  6079.940412450447  5402.210531680428
11.65  5323.0635432554645  5712.090699438529  5070.8472563690775
11.75  5011.030759885856  5368.410796601042  4761.457110827841
11.85  4718.691767791399  5047.050973567499  4472.556378898605
11.95  4444.85900166907  4746.531446041501  4202.66134442326
12.05  4188.245932440592  4465.372429726659  3950.429597544471
12.15  3947.664994802939  4202.340771042641  3714.66003470567
12.25  3722.0275872283414  3956.0800010510875  3494.080899199905
12.35  3510.4430357395304  3725.480281529703  3287.8443532225415
12.45  3311.8227388087325  3509.3084588981596  3094.749293217015
12.55  3125.3749862339337  3306.947956366292  2913.9478813786886
12.65  2950.209104037864  3117.04230499574  2744.662933053316
12.75  2785.731309569013  2938.97492799634  2585.975957285876
12.85  2631.050928850111  2771.88261786186  2437.2510757228924
12.95  2485.6731430048985  2615.025482444106  2297.7111037101163
13.05  2349.0041693818644  2467.7869449529117  2166.790816044459
13.15  2220.3512615542427  2329.4271132400813  2043.9249875228302
13.25  2099.2196006457743  2199.32941051545  1928.477739791754
13.35  1985.213331555451  2077.0005753468863  1820.0958070992992
13.45  1877.9365991822654  1962.1939770183258  1718.2846173927626
13.55  1776.8945846499566  1854.0464080235374  1622.5495986194405
13.65  1681.6914328575167  1752.4345530044889  1532.608138177788
13.75  1591.9312887039378  1656.741835171016  1448.036317165488
13.85  1507.4162246387157  1566.721623807053  1368.5515229809955
13.95  1427.6514217855904  1482.0039728385016  1293.7298367219933
14.05  1352.5379163693099  1402.218936191263  1223.3592989373226
14.15  1281.6798532888658  1326.9965677912396  1157.1572970254385
14.25  1214.7803412185028  1256.2135522803974  1094.7705652344102
14.35  1151.6414526077162  1189.4876120488352  1036.057797263465
14.45  1092.0652599060022  1126.596779452094  980.7363805110582
14.55  1035.8538355628568  1067.2820922383048  928.5943555260312
14.65  982.6904954974736  1011.346245834615  879.4904160076113
14.75  932.4960686896507  958.5549410607623  833.2126025046401
14.85  885.0627312113594  908.7355364155006  789.548955565959
14.95  840.2123482671454  861.7030588617807  748.287515740409
15.05  797.8063705716564  817.2848668983569  709.4282830279906
15.15  757.6765597069636  775.2959874881795  672.6603835670039
15.25  719.704159142765  735.6131052732163  637.9484907822562
15.35  683.7704123487576  698.1005733596307  605.1512983729749
15.45  649.7466664171144  662.6227448535867  574.1628266135808
15.55  617.5339575725831  629.080967468658  544.8629651484173
15.65  587.0333220399116  597.3519258468119  517.1739955120594
15.75  558.145796043848  567.336967701622  490.9899379789278
15.85  530.7823121866654  538.9374407466623  466.22600876855927
15.95  504.86369944816227  512.0670242313096  442.8115547305675
16.05  480.29099405308654  486.62706586913754  420.65472676945024
16.15  457.01471411381226  462.54357644532666  399.69193704986014
16.25  434.9457922326125  439.7425667450571  379.8525324214108
16.35  414.0149537668111  418.1500475535093  361.0799903637933
16.45  394.1727168287818  397.7043611916668  343.2965924115829
16.55  375.34980677584826  378.31918690890654  326.4670119895863
16.65  357.4967417203845  359.95753009781873  310.5205959474174
16.75  340.5541433972392  342.557733079387  295.42201770988316
16.85  324.48242629631176  326.0581381745949  281.1076894416359
16.95  309.21231577492557  310.42175077603264  267.54934988252114
17.05  294.7240190780304  295.5745816688804  254.6904765122299
17.15  280.95815794047485  281.5042993173349  242.49574275556904
17.25  267.8850432296835  268.1369145065766  230.9298220373456
17.35  255.46508943555543  255.46009570080216  219.9573877823663
17.45  243.64881467046467  243.4245167567983  209.54311341543817
17.55  232.4164261793608  231.98085153135207  199.64460704632933
17.65  221.73823482966822  221.10443695285682  190.24773804496266
17.75  211.56475873376093  210.77060994970603  181.31011452110639
17.85  201.8959978916389  200.95470745029306  172.8246711597219
17.95  192.69236679320136  191.60740331140488  164.75608138561608
18.05  183.9439690609231  182.7286975330414  157.09021456871167
18.15  175.6013228071781  174.2939270435961  149.80587476389286
18.25  167.67432440949156  166.26609723565917  142.87480071100515
18.35  160.12338835776274  158.6328765734272  136.28992709500983
18.45  152.9287218969411  151.3696019852938  130.02299265575252
18.55  146.09032502702678  144.46394193545555  124.06693207819454
18.65  139.5686122379189  137.89123335230593  118.40761473225868
18.75  133.36358352961744  131.6391447000416  113.01677935779041
18.85  127.44554976954687  125.68301290705617  107.89442595478978
18.95  121.81451095770713  120.02777058767076  103.0122932631023
19.05  116.45067433904784  114.63765628805595  98.37744659776656
19.15  111.33424715851858  109.50650424031006  93.96162469862809
19.25  106.46522941611939  104.6219829086298  89.75776225064826
19.35  101.81393197927459  99.97052760363161  85.75172862374984
19.45  97.39025122550945  95.53980678951218  81.94352381793281
19.55  93.16845657325844  91.31995523762889  78.31195188808134
19.65  89.14261019600639  87.29864141217844  74.8570128341954
19.75  85.30182607847564  83.46846639167886  71.56457602619774
19.85  81.6391767563985  79.81709864032689  68.43040227506522
19.95  78.14476585224979  76.33713923664055  65.4417740137283
20.05  74.80869698850432  73.0187229519772  62.59233245865223
20.15  71.62503233864696  69.85445086485488  59.875718826302254
20.25  68.58288588739997  66.83199143947031  57.28274820712813
20.35  65.67631980824825  63.947645215082524  54.80706181759514
20.45  62.898406636924136  61.192780116629194  52.44300740567237
20.55  60.24320854691253  58.561230376208684  50.185639250832786
20.65  57.705777349450834  56.04806337949969  48.030011632549346
20.75  55.2801752180239  53.64834651218091  45.971178830295024
20.85  52.96145396386916  51.35591400635067  44.0056081865505
20.95  50.744665398223994  49.16583324768769  42.1276474492849
21.05  48.62585097007831  47.07440477545096  40.334470492482744
21.15  46.601052128422054  45.07669597531918  38.62183812712088
21.25  44.6643310467401  43.167774232971034  36.985511164176124
21.35  42.81172917402235  41.34394008766554  35.42266347763304
21.45  41.04126723476377  39.6014940786617  33.92905587846844
21.55  39.34799704020177  37.93673674521856  32.50256877217075
21.65  37.728949677078774  36.3459686265951  31.13966950122065
21.75  36.180166594384715  34.82549026205036  29.837531939602695
21.85  34.69867887886203  33.37283534442368  28.59262342979758
21.95  33.28151761725316  31.984304412974055  27.40353090879757
22.05  31.92670353405305  30.656198006960523  26.26672171908336
22.15  30.63027807825163  29.388516126383067  25.18078279764723
22.25  29.389272336591343  28.175093003340063  24.14218148696986
22.35  28.201707033567146  27.015928637831493  23.14950472404353
22.45  27.065602893673997  25.907323569116393  22.200632914356653
22.55  25.978980641406856  24.846811490034092  21.293446463397647
22.65  24.93788172575564  23.833159247004264  20.42582577665492
22.75  23.942306146720355  22.86266737928592  19.595651259616886
22.85  22.98829535329092  21.93533588687907  18.80221638077969
22.95  22.075849345467326  21.048698462623054  18.04340154563173
23.05  21.201999209992017  20.19905564577688  17.317087159661437
23.15  20.364765671359958  19.38640743634056  16.621860159861072
23.25  19.562169454066105  18.609520680733755  15.957014014726786
23.35  18.794210558110457  17.86469591821549  15.320429129746985
23.45  18.055940794730414  17.15069999520543  14.709985910410081
23.55  17.34834980167849  16.46629975812324  14.124271293708354
23.65  16.66945830344966  15.80902889980828  13.56257874813794
23.75  16.01827666229139  15.180120573840869  13.024201742194975
23.85  15.392825602698647  14.575875319480021  12.507727212871742
23.95  14.792115486918908  13.997526290306066  12.01244862866437
24.05  14.216146314952175  13.441374025578023  11.537659458069001
24.15  13.66392844904592  12.908651678876215  11.081946638077913
24.25  13.133482613695111  12.398126096620317  10.644603637187236
24.35  12.624808808899749  11.908070863797864  10.22563045539698
24.45  12.135927759154786  11.4382393496928  9.824320561203276
24.55  11.666839464460228  10.987645031440852  9.438554360094539
24.65  11.217543924816072  10.55554801689383  9.06903838357463
24.75  10.785072226964761  10.141085098545503  8.714359568635828
24.85  10.370414008658813  9.743516384247672  8.37381138377427
24.95  9.972579632145704  9.362225297210175  8.048100360493816
25.05  9.591074278549181  8.996595260642847  7.735106904282881
25.15  9.224611418790962  8.645886382397489  7.434831015141464
25.25  8.872795197770046  8.309605401041972  7.147272693069566
25.35  8.535130796610163  7.986889109070067  6.871018875059463
25.45  8.21102443265981  7.677490875765708  6.606140214261542
25.55  7.89988232326747  7.380670808980695  6.352071485472711
25.65  7.601209649556885  7.0959356472829  6.108388769790653
25.75  7.314412628876541  6.822915444598223  5.874597495162666
25.85  7.039194369900683  6.5609936241365014  5.650273742686432
25.95  6.774862126202547  6.309676924465602  5.435064246610018
26.05  6.521119006456376  6.068595399511428  5.228686394331883
26.15  6.277470191785912  5.837379103199879  5.030574960648934
26.25  6.043519827090145  5.615534774098825  4.840517986110014
26.35  5.818971021043319  5.402692466134168  4.658162204963192
26.45  5.603229990993923  5.198482233231808  4.483154351456537
26.55  5.396098809391453  5.002534129317648  4.315282466138888
26.65  5.197082657359648  4.814601523675622  4.15412263010793
26.75  5.0059836073480035  4.634191154873597  3.999462883912505
26.85  4.822405804255513  4.461056392195509  3.8509499618006795
26.95  4.646052356756419  4.294950604925293  3.708513210622069
27.05  4.476329482199211  4.1351339009147505  3.5713754457224245
27.15  4.312940289258132  3.981359649447817  3.439395360800974
27.25  4.155488922832173  3.8332579044503925  3.3123609964065586
27.35  4.003777455370832  3.6907053505644463  3.1899897399376327
27.45  3.857706923098856  3.5534553570739114  3.072281591394198
27.55  3.71707939846574  3.421384608620755  2.9588832850243216
27.65  3.5815979901457298  3.294246474488911  2.849724167677619
27.75  3.45106477058832  3.171917639320348  2.7446629330533163
27.85  3.325380776018259  3.054151472398999  2.643487621700255
27.95  3.204447042660295  2.940824658366832  2.5461275804680503
28.05  3.0878677154134193  2.831690566507781  2.4523708499055425
28.15  2.9756427942776327  2.726749196821846  2.362146776862345
28.25  2.8675743517024306  2.625630603234929  2.2753140550376862
28.35  2.7634644601373095  2.5284581011050618  2.191731378130793
28.45  2.6632141558070166  2.43498505971618  2.11132809299128
28.55  2.5667244749363003  2.344964848352217  2.0338922401679875
28.65  2.473896453749909  2.2582741516551406  1.9593531665105302
28.75  2.384433200922086  2.1749129696249505  1.8876402188685213
28.85  2.2982357526775794  2.0947579869036135  1.818682744091575
28.95  2.215403072791642  2.0175625727750646  1.7522687827285324
29.05  2.1355393061632646  1.9434500425973362  1.6883983347793934
29.15  2.0586444527924477  1.87205045029633  1.6268594407929997
29.25  1.9847185126791913  1.8033637958720459  1.5677227539197374
29.35  1.9134645944977393  1.7372667639664512  1.5108469678588337
29.45  1.844882698248092  1.6737593545795457  1.4560201231591303
29.55  1.778873860154997  1.6125949369952643  1.4033835261213998
29.65  1.7154380802184543  1.5537735112136062  1.352654564144097
29.75  1.654278467112708  1.497295077234572  1.3039038903776083
29.85  1.5953950208377583  1.4429130043420957  1.2569901985211611
29.95  1.5387877413936049  1.3906272925361776  1.2118428354243695

